Frequency (Hz),Magnitude (dB),Phase (degrees)
10,13.97940949,-0.038016008
10.02305238,13.97940953,-0.038103644
10.0461579,13.97940958,-0.038191482
10.06931669,13.97940962,-0.038279523
10.09252886,13.97940967,-0.038367766
10.11579454,13.97940971,-0.038456213
10.13911386,13.97940975,-0.038544864
10.16248693,13.9794098,-0.03863372
10.18591388,13.97940984,-0.03872278
10.20939484,13.97940989,-0.038812045
10.23292992,13.97940993,-0.038901516
10.25651926,13.97940998,-0.038991194
10.28016298,13.97941002,-0.039081078
10.3038612,13.97941007,-0.039171169
10.32761406,13.97941012,-0.039261469
10.35142167,13.97941016,-0.039351976
10.37528416,13.97941021,-0.039442692
10.39920166,13.97941026,-0.039533617
10.42317429,13.9794103,-0.039624751
10.44720219,13.97941035,-0.039716096
10.47128548,13.9794104,-0.039807651
10.49542429,13.97941045,-0.039899418
10.51961874,13.97941049,-0.039991396
10.54386896,13.97941054,-0.040083586
10.56817509,13.97941059,-0.040175988
10.59253725,13.97941064,-0.040268603
10.61695557,13.97941069,-0.040361432
10.64143018,13.97941074,-0.040454475
10.66596121,13.97941078,-0.040547733
10.69054879,13.97941083,-0.040641205
10.71519305,13.97941088,-0.040734893
10.73989412,13.97941093,-0.040828797
10.76465214,13.97941098,-0.040922917
10.78946722,13.97941103,-0.041017255
10.81433951,13.97941108,-0.041111809
10.83926914,13.97941113,-0.041206582
10.86425624,13.97941119,-0.041301573
10.88930093,13.97941124,-0.041396784
10.91440336,13.97941129,-0.041492213
10.93956366,13.97941134,-0.041587863
10.96478196,13.97941139,-0.041683733
10.99005839,13.97941144,-0.041779824
11.0153931,13.9794115,-0.041876137
11.0407862,13.97941155,-0.041972672
11.06623784,13.9794116,-0.042069429
11.09174815,13.97941166,-0.04216641
11.11731727,13.97941171,-0.042263613
11.14294534,13.97941176,-0.042361041
11.16863248,13.97941182,-0.042458694
11.19437883,13.97941187,-0.042556572
11.22018454,13.97941193,-0.042654675
11.24604974,13.97941198,-0.042753004
11.27197456,13.97941203,-0.042851561
11.29795915,13.97941209,-0.042950344
11.32400363,13.97941215,-0.043049355
11.35010816,13.9794122,-0.043148594
11.37627286,13.97941226,-0.043248062
11.40249788,13.97941231,-0.04334776
11.42878335,13.97941237,-0.043447687
11.45512941,13.97941243,-0.043547845
11.48153621,13.97941248,-0.043648233
11.50800389,13.97941254,-0.043748853
11.53453258,13.9794126,-0.043849705
11.56112242,13.97941266,-0.043950789
11.58777356,13.97941271,-0.044052106
11.61448614,13.97941277,-0.044153657
11.64126029,13.97941283,-0.044255442
11.66809617,13.97941289,-0.044357462
11.69499391,13.97941295,-0.044459717
11.72195366,13.97941301,-0.044562207
11.74897555,13.97941307,-0.044664934
11.77605974,13.97941313,-0.044767898
11.80320636,13.97941319,-0.044871099
11.83041556,13.97941325,-0.044974538
11.85768748,13.97941331,-0.045078215
11.88502227,13.97941337,-0.045182131
11.91242008,13.97941343,-0.045286287
11.93988104,13.97941349,-0.045390683
11.96740531,13.97941355,-0.04549532
11.99499303,13.97941362,-0.045600198
12.02264435,13.97941368,-0.045705318
12.0503594,13.97941374,-0.04581068
12.07813835,13.9794138,-0.045916284
12.10598134,13.97941387,-0.046022133
12.1338885,13.97941393,-0.046128225
12.16186001,13.979414,-0.046234562
12.18989599,13.97941406,-0.046341144
12.2179966,13.97941412,-0.046447972
12.24616199,13.97941419,-0.046555046
12.27439231,13.97941425,-0.046662367
12.30268771,13.97941432,-0.046769935
12.33104833,13.97941439,-0.046877751
12.35947433,13.97941445,-0.046985816
12.38796587,13.97941452,-0.04709413
12.41652308,13.97941458,-0.047202693
12.44514612,13.97941465,-0.047311507
12.47383514,13.97941472,-0.047420572
12.5025903,13.97941479,-0.047529888
12.53141175,13.97941485,-0.047639456
12.56029964,13.97941492,-0.047749277
12.58925412,13.97941499,-0.047859351
12.61827535,13.97941506,-0.047969678
12.64736347,13.97941513,-0.04808026
12.67651866,13.9794152,-0.048191097
12.70574105,13.97941527,-0.048302189
12.73503081,13.97941534,-0.048413538
12.76438809,13.97941541,-0.048525143
12.79381304,13.97941548,-0.048637005
12.82330583,13.97941555,-0.048749126
12.8528666,13.97941562,-0.048861504
12.88249552,13.97941569,-0.048974142
12.91219274,13.97941576,-0.04908704
12.94195841,13.97941584,-0.049200197
12.97179271,13.97941591,-0.049313616
13.00169578,13.97941598,-0.049427296
13.03166778,13.97941606,-0.049541238
13.06170888,13.97941613,-0.049655443
13.09181923,13.9794162,-0.049769911
13.12199899,13.97941628,-0.049884643
13.15224832,13.97941635,-0.04999964
13.18256739,13.97941643,-0.050114901
13.21295634,13.9794165,-0.050230428
13.24341535,13.97941658,-0.050346222
13.27394458,13.97941666,-0.050462282
13.30454418,13.97941673,-0.05057861
13.33521432,13.97941681,-0.050695207
13.36595517,13.97941689,-0.050812072
13.39676687,13.97941696,-0.050929206
13.42764961,13.97941704,-0.051046611
13.45860354,13.97941712,-0.051164286
13.48962883,13.9794172,-0.051282232
13.52072563,13.97941728,-0.05140045
13.55189412,13.97941736,-0.051518941
13.58313447,13.97941744,-0.051637705
13.61444682,13.97941752,-0.051756743
13.64583137,13.9794176,-0.051876055
13.67728826,13.97941768,-0.051995642
13.70881766,13.97941776,-0.052115505
13.74041975,13.97941784,-0.052235644
13.77209469,13.97941792,-0.05235606
13.80384265,13.979418,-0.052476754
13.83566379,13.97941809,-0.052597726
13.86755829,13.97941817,-0.052718977
13.89952631,13.97941825,-0.052840507
13.93156803,13.97941834,-0.052962317
13.96368361,13.97941842,-0.053084409
13.99587323,13.97941851,-0.053206781
14.02813705,13.97941859,-0.053329436
14.06047524,13.97941868,-0.053452374
14.09288798,13.97941876,-0.053575595
14.12537545,13.97941885,-0.0536991
14.1579378,13.97941894,-0.05382289
14.19057522,13.97941902,-0.053946965
14.22328787,13.97941911,-0.054071326
14.25607594,13.9794192,-0.054195974
14.28893959,13.97941929,-0.054320909
14.32187899,13.97941937,-0.054446132
14.35489433,13.97941946,-0.054571644
14.38798578,13.97941955,-0.054697446
14.42115352,13.97941964,-0.054823537
14.45439771,13.97941973,-0.054949919
14.48771854,13.97941982,-0.055076592
14.52111618,13.97941992,-0.055203557
14.55459081,13.97942001,-0.055330815
14.5881426,13.9794201,-0.055458367
14.62177174,13.97942019,-0.055586212
14.65547841,13.97942028,-0.055714352
14.68926278,13.97942038,-0.055842787
14.72312502,13.97942047,-0.055971519
14.75706533,13.97942056,-0.056100547
14.79108388,13.97942066,-0.056229873
14.82518085,13.97942075,-0.056359497
14.85935642,13.97942085,-0.05648942
14.89361078,13.97942095,-0.056619642
14.9279441,13.97942104,-0.056750164
14.96235656,13.97942114,-0.056880988
14.99684836,13.97942124,-0.057012113
15.03141966,13.97942133,-0.05714354
15.06607066,13.97942143,-0.05727527
15.10080154,13.97942153,-0.057407304
15.13561248,13.97942163,-0.057539642
15.17050367,13.97942173,-0.057672285
15.2054753,13.97942183,-0.057805234
15.24052754,13.97942193,-0.05793849
15.27566058,13.97942203,-0.058072053
15.31087462,13.97942213,-0.058205923
15.34616983,13.97942223,-0.058340102
15.3815464,13.97942233,-0.058474591
15.41700453,13.97942244,-0.05860939
15.4525444,13.97942254,-0.058744499
15.48816619,13.97942264,-0.05887992
15.5238701,13.97942275,-0.059015653
15.55965632,13.97942285,-0.059151699
15.59552503,13.97942296,-0.059288058
15.63147643,13.97942306,-0.059424732
15.6675107,13.97942317,-0.059561721
15.70362804,13.97942328,-0.059699026
15.73982864,13.97942338,-0.059836647
15.7761127,13.97942349,-0.059974585
15.81248039,13.9794236,-0.060112842
15.84893192,13.97942371,-0.060251417
15.88546749,13.97942382,-0.060390312
15.92208727,13.97942393,-0.060529527
15.95879147,13.97942404,-0.060669063
15.99558029,13.97942415,-0.06080892
16.03245391,13.97942426,-0.0609491
16.06941253,13.97942437,-0.061089603
16.10645635,13.97942448,-0.06123043
16.14358557,13.97942459,-0.061371581
16.18080038,13.97942471,-0.061513058
16.21810097,13.97942482,-0.061654861
16.25548756,13.97942493,-0.061796991
16.29296033,13.97942505,-0.061939449
16.33051948,13.97942516,-0.062082235
16.36816521,13.97942528,-0.06222535
16.40589773,13.9794254,-0.062368796
16.44371723,13.97942551,-0.062512571
16.48162392,13.97942563,-0.062656679
16.51961798,13.97942575,-0.062801118
16.55769963,13.97942587,-0.062945891
16.59586907,13.97942599,-0.063090997
16.6341265,13.97942611,-0.063236437
16.67247213,13.97942623,-0.063382213
16.71090614,13.97942635,-0.063528325
16.74942876,13.97942647,-0.063674774
16.78804018,13.97942659,-0.063821561
16.82674061,13.97942671,-0.063968686
16.86553025,13.97942683,-0.06411615
16.90440932,13.97942696,-0.064263954
16.943378,13.97942708,-0.064412098
16.98243652,13.97942721,-0.064560585
17.02158508,13.97942733,-0.064709413
17.06082389,13.97942746,-0.064858585
17.10015315,13.97942758,-0.0650081
17.13957308,13.97942771,-0.06515796
17.17908387,13.97942784,-0.065308166
17.21868575,13.97942797,-0.065458718
17.25837892,13.9794281,-0.065609617
17.29816359,13.97942822,-0.065760864
17.33803998,13.97942835,-0.065912459
17.37800829,13.97942848,-0.066064404
17.41806873,13.97942862,-0.066216699
17.45822153,13.97942875,-0.066369346
17.49846689,13.97942888,-0.066522344
17.53880502,13.97942901,-0.066675695
17.57923614,13.97942915,-0.066829399
17.61976046,13.97942928,-0.066983458
17.66037821,13.97942942,-0.067137872
17.70108958,13.97942955,-0.067292642
17.74189481,13.97942969,-0.067447769
17.7827941,13.97942982,-0.067603253
17.82378767,13.97942996,-0.067759096
17.86487575,13.9794301,-0.067915298
17.90605854,13.97943024,-0.06807186
17.94733627,13.97943038,-0.068228783
17.98870915,13.97943052,-0.068386067
18.03017741,13.97943066,-0.068543715
18.07174126,13.9794308,-0.068701726
18.11340093,13.97943094,-0.068860101
18.15515663,13.97943108,-0.069018841
18.19700859,13.97943122,-0.069177947
18.23895702,13.97943137,-0.06933742
18.28100216,13.97943151,-0.06949726
18.32314422,13.97943166,-0.069657469
18.36538343,13.9794318,-0.069818047
18.40772001,13.97943195,-0.069978996
18.45015419,13.9794321,-0.070140315
18.49268619,13.97943224,-0.070302007
18.53531623,13.97943239,-0.070464071
18.57804455,13.97943254,-0.070626509
18.62087137,13.97943269,-0.070789321
18.66379691,13.97943284,-0.070952509
18.7068214,13.97943299,-0.071116072
18.74994508,13.97943315,-0.071280013
18.79316817,13.9794333,-0.071444332
18.83649089,13.97943345,-0.071609029
18.87991349,13.97943361,-0.071774107
18.92343619,13.97943376,-0.071939564
18.96705921,13.97943392,-0.072105404
19.0107828,13.97943407,-0.072271625
19.05460718,13.97943423,-0.07243823
19.09853259,13.97943439,-0.072605219
19.14255925,13.97943454,-0.072772592
19.18668741,13.9794347,-0.072940352
19.23091729,13.97943486,-0.073108498
19.27524913,13.97943502,-0.073277032
19.31968317,13.97943519,-0.073445955
19.36421964,13.97943535,-0.073615267
19.40885878,13.97943551,-0.073784969
19.45360082,13.97943567,-0.073955062
19.498446,13.97943584,-0.074125548
19.54339456,13.979436,-0.074296426
19.58844674,13.97943617,-0.074467699
19.63360277,13.97943634,-0.074639366
19.6788629,13.9794365,-0.074811429
19.72422736,13.97943667,-0.074983889
19.7696964,13.97943684,-0.075156746
19.81527026,13.97943701,-0.075330002
19.86094917,13.97943718,-0.075503657
19.90673339,13.97943735,-0.075677712
19.95262315,13.97943752,-0.075852169
19.9986187,13.9794377,-0.076027028
20.04472027,13.97943787,-0.07620229
20.09092813,13.97943804,-0.076377956
20.1372425,13.97943822,-0.076554027
20.18366364,13.97943839,-0.076730504
20.23019179,13.97943857,-0.076907388
20.2768272,13.97943875,-0.077084679
20.32357011,13.97943893,-0.07726238
20.37042078,13.97943911,-0.07744049
20.41737945,13.97943929,-0.07761901
20.46444637,13.97943947,-0.077797942
20.51162179,13.97943965,-0.077977287
20.55890596,13.97943983,-0.078157045
20.60629913,13.97944002,-0.078337217
20.65380156,13.9794402,-0.078517805
20.70141349,13.97944039,-0.078698809
20.74913517,13.97944057,-0.07888023
20.79696687,13.97944076,-0.079062069
20.84490883,13.97944095,-0.079244328
20.89296131,13.97944113,-0.079427007
20.94112456,13.97944132,-0.079610107
20.98939884,13.97944151,-0.079793629
21.0377844,13.97944171,-0.079977574
21.0862815,13.9794419,-0.080161944
21.1348904,13.97944209,-0.080346738
21.18361135,13.97944228,-0.080531958
21.23244462,13.97944248,-0.080717605
21.28139046,13.97944268,-0.080903681
21.33044913,13.97944287,-0.081090185
21.3796209,13.97944307,-0.081277119
21.42890601,13.97944327,-0.081464484
21.47830474,13.97944347,-0.081652281
21.52781735,13.97944367,-0.081840511
21.57744409,13.97944387,-0.082029175
21.62718524,13.97944407,-0.082218274
21.67704105,13.97944427,-0.082407809
21.72701179,13.97944448,-0.08259778
21.77709772,13.97944468,-0.08278819
21.82729912,13.97944489,-0.082979039
21.87761624,13.97944509,-0.083170327
21.92804935,13.9794453,-0.083362057
21.97859873,13.97944551,-0.083554228
22.02926463,13.97944572,-0.083746843
22.08004733,13.97944593,-0.083939901
22.1309471,13.97944614,-0.084133405
22.1819642,13.97944636,-0.084327355
22.23309891,13.97944657,-0.084521752
22.28435149,13.97944678,-0.084716597
22.33572223,13.979447,-0.084911891
22.38721139,13.97944722,-0.085107635
22.43881924,13.97944743,-0.085303831
22.49054606,13.97944765,-0.085500479
22.54239212,13.97944787,-0.08569758
22.5943577,13.97944809,-0.085895136
22.64644308,13.97944831,-0.086093147
22.69864852,13.97944854,-0.086291614
22.75097431,13.97944876,-0.086490539
22.80342072,13.97944898,-0.086689923
22.85598803,13.97944921,-0.086889766
22.90867653,13.97944944,-0.08709007
22.96148648,13.97944967,-0.087290836
23.01441817,13.97944989,-0.087492065
23.06747189,13.97945012,-0.087693757
23.1206479,13.97945035,-0.087895915
23.1739465,13.97945059,-0.088098538
23.22736796,13.97945082,-0.088301629
23.28091258,13.97945105,-0.088505188
23.33458062,13.97945129,-0.088709216
23.38837239,13.97945153,-0.088913714
23.44228815,13.97945176,-0.089118684
23.49632821,13.979452,-0.089324127
23.55049284,13.97945224,-0.089530043
23.60478233,13.97945248,-0.089736433
23.65919697,13.97945272,-0.0899433
23.71373706,13.97945297,-0.090150643
23.76840287,13.97945321,-0.090358465
23.82319469,13.97945346,-0.090566765
23.87811283,13.9794537,-0.090775546
23.93315756,13.97945395,-0.090984808
23.98832919,13.9794542,-0.091194552
24.043628,13.97945445,-0.09140478
24.09905429,13.9794547,-0.091615493
24.15460834,13.97945495,-0.091826691
24.21029047,13.9794552,-0.092038377
24.26610095,13.97945546,-0.09225055
24.32204009,13.97945571,-0.092463212
24.37810818,13.97945597,-0.092676365
24.43430553,13.97945623,-0.092890009
24.49063242,13.97945649,-0.093104146
24.54708916,13.97945675,-0.093318776
24.60367604,13.97945701,-0.093533901
24.66039337,13.97945727,-0.093749522
24.71724145,13.97945754,-0.09396564
24.77422058,13.9794578,-0.094182256
24.83133105,13.97945807,-0.094399372
24.88857318,13.97945834,-0.094616988
24.94594727,13.97945861,-0.094835106
25.00345362,13.97945888,-0.095053726
25.06109253,13.97945915,-0.095272851
25.11886432,13.97945942,-0.095492481
25.17676928,13.97945969,-0.095712617
25.23480772,13.97945997,-0.09593326
25.29297996,13.97946024,-0.096154413
25.3512863,13.97946052,-0.096376075
25.40972706,13.9794608,-0.096598248
25.46830253,13.97946108,-0.096820933
25.52701303,13.97946136,-0.097044132
25.58585887,13.97946165,-0.097267845
25.64484037,13.97946193,-0.097492074
25.70395783,13.97946222,-0.09771682
25.76321157,13.9794625,-0.097942084
25.82260191,13.97946279,-0.098167867
25.88212915,13.97946308,-0.098394171
25.94179362,13.97946337,-0.098620997
26.00159563,13.97946366,-0.098848345
26.0615355,13.97946396,-0.099076217
26.12161354,13.97946425,-0.099304615
26.18183008,13.97946455,-0.09953354
26.24218543,13.97946484,-0.099762992
26.30267992,13.97946514,-0.099992973
26.36331386,13.97946544,-0.100223484
26.42408757,13.97946575,-0.100454527
26.48500139,13.97946605,-0.100686102
26.54605562,13.97946635,-0.100918212
26.6072506,13.97946666,-0.101150856
26.66858665,13.97946697,-0.101384037
26.73006409,13.97946727,-0.101617755
26.79168325,13.97946758,-0.101852012
26.85344446,13.9794679,-0.102086809
26.91534804,13.97946821,-0.102322147
26.97739432,13.97946852,-0.102558028
27.03958364,13.97946884,-0.102794453
27.10191632,13.97946916,-0.103031422
27.16439269,13.97946948,-0.103268938
27.22701308,13.9794698,-0.103507002
27.28977783,13.97947012,-0.103745614
27.35268726,13.97947044,-0.103984777
27.41574172,13.97947077,-0.104224491
27.47894153,13.97947109,-0.104464757
27.54228703,13.97947142,-0.104705578
27.60577856,13.97947175,-0.104946953
27.66941645,13.97947208,-0.105188885
27.73320105,13.97947241,-0.105431375
27.79713268,13.97947275,-0.105674424
27.86121169,13.97947308,-0.105918033
27.92543841,13.97947342,-0.106162203
27.9898132,13.97947376,-0.106406937
28.05433638,13.9794741,-0.106652235
28.1190083,13.97947444,-0.106898098
28.18382931,13.97947478,-0.107144528
28.24879975,13.97947513,-0.107391526
28.31391996,13.97947547,-0.107639094
28.37919028,13.97947582,-0.107887232
28.44461107,13.97947617,-0.108135943
28.51018268,13.97947652,-0.108385226
28.57590543,13.97947687,-0.108635085
28.6417797,13.97947723,-0.108885519
28.70780582,13.97947759,-0.109136531
28.77398415,13.97947794,-0.109388122
28.84031503,13.9794783,-0.109640292
28.90679882,13.97947866,-0.109893044
28.97343588,13.97947903,-0.110146379
29.04022654,13.97947939,-0.110400297
29.10717118,13.97947976,-0.110654801
29.17427014,13.97948012,-0.110909892
29.24152378,13.97948049,-0.111165571
29.30893245,13.97948086,-0.111421839
29.37649652,13.97948124,-0.111678698
29.44421634,13.97948161,-0.111936149
29.51209227,13.97948199,-0.112194194
29.58012467,13.97948237,-0.112452833
29.6483139,13.97948275,-0.112712069
29.71666032,13.97948313,-0.112971903
29.78516429,13.97948351,-0.113232335
29.85382619,13.9794839,-0.113493368
29.92264637,13.97948428,-0.113755002
29.99162519,13.97948467,-0.11401724
30.06076303,13.97948506,-0.114280083
30.13006024,13.97948545,-0.114543531
30.1995172,13.97948585,-0.114807587
30.26913428,13.97948624,-0.115072251
30.33891184,13.97948664,-0.115337526
30.40885026,13.97948704,-0.115603412
30.4789499,13.97948744,-0.115869911
30.54921113,13.97948785,-0.116137024
30.61963434,13.97948825,-0.116404754
30.69021988,13.97948866,-0.1166731
30.76096815,13.97948907,-0.116942065
30.8318795,13.97948948,-0.117211651
30.90295433,13.97948989,-0.117481857
30.97419299,13.9794903,-0.117752687
31.04559588,13.97949072,-0.118024141
31.11716337,13.97949114,-0.118296221
31.18889584,13.97949156,-0.118568928
31.26079367,13.97949198,-0.118842264
31.33285724,13.97949241,-0.11911623
31.40508694,13.97949283,-0.119390827
31.47748314,13.97949326,-0.119666058
31.55004623,13.97949369,-0.119941923
31.6227766,13.97949412,-0.120218424
31.69567463,13.97949456,-0.120495563
31.76874071,13.97949499,-0.12077334
31.84197522,13.97949543,-0.121051758
31.91537855,13.97949587,-0.121330817
31.9889511,13.97949631,-0.121610521
32.06269325,13.97949676,-0.121890868
32.13660539,13.9794972,-0.122171863
32.21068791,13.97949765,-0.122453505
32.28494122,13.9794981,-0.122735796
32.35936569,13.97949855,-0.123018738
32.43396173,13.97949901,-0.123302332
32.50872974,13.97949947,-0.12358658
32.5836701,13.97949992,-0.123871484
32.65878322,13.97950038,-0.124157044
32.73406949,13.97950085,-0.124443263
32.80952931,13.97950131,-0.124730141
32.88516309,13.97950178,-0.125017681
32.96097122,13.97950225,-0.125305884
33.0369541,13.97950272,-0.125594751
33.11311215,13.97950319,-0.125884284
33.18944576,13.97950367,-0.126174485
33.26595533,13.97950415,-0.126465355
33.34264128,13.97950463,-0.126756895
33.419504,13.97950511,-0.127049107
33.49654392,13.9795056,-0.127341993
33.57376142,13.97950608,-0.127635555
33.65115694,13.97950657,-0.127929793
33.72873087,13.97950706,-0.128224709
33.80648362,13.97950756,-0.128520305
33.88441561,13.97950805,-0.128816583
33.96252726,13.97950855,-0.129113544
34.04081897,13.97950905,-0.129411189
34.11929116,13.97950956,-0.129709521
34.19794425,13.97951006,-0.13000854
34.27677865,13.97951057,-0.130308249
34.35579479,13.97951108,-0.130608649
34.43499308,13.97951159,-0.130909741
34.51437393,13.97951211,-0.131211528
34.59393778,13.97951262,-0.13151401
34.67368505,13.97951314,-0.131817189
34.75361614,13.97951366,-0.132121068
34.8337315,13.97951419,-0.132425647
34.91403155,13.97951472,-0.132730928
